Time,Extension,Load
(sec),(mm),(N)
0.00000,0.00000,-0.92547
0.10000,0.00717,0.80971
0.20000,0.02637,4.66508
0.30000,0.04628,17.33340
0.40000,0.06487,34.04471
0.50000,0.08269,53.33135
0.60000,0.09973,69.93691
0.70000,0.11659,82.38158
0.80000,0.13333,84.32278
0.90000,0.15007,85.30983
1.00000,0.16675,85.42851
1.10000,0.18337,84.57620
1.20000,0.20012,85.37759
1.30000,0.21668,85.44888
1.40000,0.23336,85.41520
1.50000,0.25004,84.49199
1.60000,0.26666,85.61926
1.70000,0.28340,84.80886
1.80000,0.30002,86.13237
1.90000,0.31665,84.66747
2.00000,0.33327,85.77868
2.10000,0.34995,85.73755
2.20000,0.36663,85.78103
2.30000,0.38325,85.81824
2.40000,0.39987,85.29103
2.50000,0.41667,85.69251
2.60000,0.43317,86.37679
2.70000,0.44986,87.16016
2.80000,0.46666,99.44267
2.90000,0.48316,114.30051
3.00000,0.49990,130.71845
3.10000,0.51658,146.77917
3.20000,0.53338,164.45324
3.30000,0.55000,181.23781
3.40000,0.56651,197.62048
3.50000,0.58331,213.55704
3.60000,0.59987,230.15633
3.70000,0.61661,247.34666
3.80000,0.63329,263.98238
3.90000,0.64985,279.89231
4.00000,0.66665,295.86216
4.10000,0.68333,313.12653
4.20000,0.69996,329.91304
4.30000,0.71670,345.78692
4.40000,0.73332,362.36153
4.50000,0.75006,378.14688
4.60000,0.76668,393.97222
4.70000,0.78330,409.28205
4.80000,0.79998,424.91583
4.90000,0.81666,440.31655
5.00000,0.83335,455.48580
5.10000,0.84997,470.55124
5.20000,0.86677,486.90690
5.30000,0.88339,502.58767
5.40000,0.90007,518.20343
5.50000,0.91669,533.43498
5.60000,0.93319,547.50200
5.70000,0.94994,563.33831
5.80000,0.96656,578.54122
5.90000,0.98324,594.21221
6.00000,0.99986,608.09632
6.10000,1.01654,622.65177
6.20000,1.03322,638.91970
6.30000,1.04990,654.22915
6.40000,1.06658,669.14223
6.50000,1.08321,683.59626
6.60000,1.09983,697.48820
6.70000,1.11663,712.49804
6.80000,1.13325,728.08559
6.90000,1.14993,741.79661
7.00000,1.16661,755.75747
7.10000,1.18323,769.95222
7.20000,1.19992,785.28831
7.30000,1.21660,799.12385
7.40000,1.23334,813.42394
7.50000,1.24996,827.86186
7.60000,1.26664,840.92738
7.70000,1.28326,856.10049
7.80000,1.29988,869.77622
7.90000,1.31656,884.09279
8.00000,1.33331,899.04154
8.10000,1.34999,913.24802
8.20000,1.36661,927.67421
8.30000,1.38323,942.99270
8.40000,1.39997,956.03783
8.50000,1.41665,969.88082
8.60000,1.43327,983.45904
8.70000,1.45001,997.18561
8.80000,1.46664,1011.12109
8.90000,1.48332,1025.11607
9.00000,1.50000,1037.73465
9.10000,1.51668,1050.21847
9.20000,1.53330,1064.35167
9.30000,1.54992,1077.28476
9.40000,1.56666,1090.33659
9.50000,1.58323,1104.48664
9.60000,1.59991,1117.85606
9.70000,1.61665,1130.12958
9.80000,1.63333,1145.04388
9.90000,1.65001,1158.50847
10.00000,1.66663,1171.47332
10.10000,1.68337,1184.48986
10.20000,1.69999,1198.04768
10.30000,1.71656,1211.47428
10.40000,1.73330,1223.71018
10.50000,1.74992,1237.03815
10.60000,1.76660,1249.94107
10.70000,1.78334,1261.77547
10.80000,1.79990,1274.84528
10.90000,1.81664,1287.47327
11.00000,1.83327,1299.79849
11.10000,1.85001,1311.80128
11.20000,1.86663,1324.97922
11.30000,1.88325,1337.71058
11.40000,1.90005,1350.80619
11.50000,1.91655,1363.36060
11.60000,1.93323,1374.61256
11.70000,1.94997,1387.60796
11.80000,1.96654,1400.29863
11.90000,1.98328,1412.13769
12.00000,1.99996,1424.04689
12.10000,2.01658,1435.62872
12.20000,2.03326,1447.69615
12.30000,2.05000,1460.72404
12.40000,2.06668,1473.51418
12.50000,2.08331,1485.52880
12.60000,2.09999,1497.80232
12.70000,2.11661,1510.33588
12.80000,2.13329,1522.18714
12.90000,2.15003,1534.59189
13.00000,2.16665,1546.69108
13.10000,2.18333,1557.25246
13.20000,2.20001,1570.63529
13.30000,2.21658,1581.93056
13.40000,2.23332,1593.51174
13.50000,2.24988,1605.14601
13.60000,2.26662,1615.51982
13.70000,2.28330,1627.33495
13.80000,2.29986,1638.56838
13.90000,2.31654,1650.03687
14.00000,2.33328,1660.80128
14.10000,2.34991,1671.46791
14.20000,2.36659,1683.53990
14.30000,2.38321,1694.23539
14.40000,2.39995,1706.85984
14.50000,2.41663,1718.12773
14.60000,2.43331,1727.91611
14.70000,2.44999,1740.68268
14.80000,2.46656,1752.49986
14.90000,2.48330,1763.01841
15.00000,2.49992,1774.76760
15.10000,2.51660,1785.09671
15.20000,2.53328,1797.11543
15.30000,2.54990,1808.79217
15.40000,2.56658,1818.72007
15.50000,2.58326,1830.23643
15.60000,2.60001,1840.88778
15.70000,2.61669,1851.42457
15.80000,2.63331,1861.70489
15.90000,2.64999,1872.28732
16.00000,2.66661,1882.41210
16.10000,2.68329,1892.99602
16.20000,2.69991,1903.93459
16.30000,2.71660,1913.95339
16.40000,2.73328,1925.69178
16.50000,2.74990,1935.15867
16.60000,2.76664,1945.55726
16.70000,2.78332,1956.33098
16.80000,2.79994,1966.56026
16.90000,2.81656,1976.95550
17.00000,2.83330,1987.76014
17.10000,2.84987,1997.62695
17.20000,2.86661,2008.19299
17.30000,2.88323,2017.46617
17.40000,2.89985,2027.83849
17.50000,2.91659,2038.56975
17.60000,2.93327,2048.23893
17.70000,2.94995,2058.70159
17.80000,2.96663,2068.64495
17.90000,2.98326,2078.73099
18.00000,2.99994,2089.66397
18.10000,3.01668,2098.03637
18.20000,3.03318,2108.67375
18.30000,3.04998,2119.17926
18.40000,3.06654,2129.33905
18.50000,3.08328,2138.61279
18.60000,3.09997,2147.71871
18.70000,3.11665,2158.37434
18.80000,3.13333,2168.51756
18.90000,3.15001,2178.46129
19.00000,3.16663,2188.28674
19.10000,3.18331,2197.55601
19.20000,3.19999,2207.87637
19.30000,3.21667,2216.21431
19.40000,3.23330,2225.95464
19.50000,3.24998,2235.42694
19.60000,3.26666,2244.63716
19.70000,3.28328,2253.47318
19.80000,3.29990,2263.40704
19.90000,3.31670,2272.35928
20.00000,3.33320,2281.42887
20.10000,3.34989,2290.62531
20.20000,3.36657,2300.13337
20.30000,3.38331,2309.43710
20.40000,3.39993,2319.16681
20.50000,3.41661,2328.37237
20.60000,3.43323,2337.06329
20.70000,3.44985,2346.93196
20.80000,3.46654,2356.63708
20.90000,3.48328,2365.86742
21.00000,3.49990,2375.11210
21.10000,3.51652,2383.98071
21.20000,3.53320,2393.83467
21.30000,3.54994,2402.43990
21.40000,3.56656,2411.02707
21.50000,3.58324,2420.32241
21.60000,3.59993,2428.75870
21.70000,3.61649,2437.86685
21.80000,3.63323,2446.73491
21.90000,3.64985,2455.40123
22.00000,3.66653,2463.77625
22.10000,3.68327,2473.05166
22.20000,3.69983,2481.75822
22.30000,3.71669,2489.57220
22.40000,3.73332,2497.88556
22.50000,3.75000,2506.40940
22.60000,3.76662,2513.73630
22.70000,3.78330,2524.01661
22.80000,3.79992,2531.93397
22.90000,3.81660,2539.67289
23.00000,3.83328,2548.96339
23.10000,3.84996,2556.83567
23.20000,3.86665,2566.44096
23.30000,3.88339,2574.74817
23.40000,3.89995,2582.58041
23.50000,3.91669,2511.46909
23.50600,3.91771,2197.08309
23.51000,3.91842,1914.60103
23.51400,3.91914,1610.32211
23.51600,3.91950,1458.69479
