Time,Extension,Load
(sec),(mm),(N)
0.00000,0.00000,0.03394
0.10000,-0.01722,0.03078
0.20000,-0.05130,0.01525
0.30000,-0.08562,0.01084
0.40000,-0.11808,-0.00257
0.50000,-0.14935,-0.01104
0.60000,-0.17973,-0.02344
0.70000,-0.20992,-0.02502
0.80000,-0.24000,-0.03508
0.90000,-0.27007,-0.05367
1.00000,-0.30008,-0.05478
1.10000,-0.33004,-0.06383
1.20000,-0.35999,-0.08106
1.30000,-0.39007,-0.08599
1.40000,-0.42002,-0.09537
1.50000,-0.45010,-0.10828
1.60000,-0.47999,-0.11413
1.70000,-0.51000,-0.12419
1.80000,-0.54002,-0.13479
1.90000,-0.56997,-0.14768
2.00000,-0.60005,-0.15229
2.10000,-0.63000,-0.16055
2.20000,-0.66002,-0.17104
2.30000,-0.68997,-0.17272
2.40000,-0.72004,-0.18120
2.50000,-0.75000,-0.18851
2.60000,-0.78001,-0.19168
2.70000,-0.81003,-0.19782
2.80000,-0.83998,-0.20575
2.90000,-0.86994,-0.20911
3.00000,-0.90001,-0.21669
3.10000,-0.93009,-0.22359
3.20000,-0.95998,-0.23080
3.30000,-0.98993,-0.23811
3.40000,-1.01995,-0.24280
3.50000,-1.04996,-0.25190
3.60000,-1.07992,-0.25849
3.70000,-1.10993,-0.27112
3.80000,-1.13989,-0.27734
3.90000,-1.16984,-0.29289
4.00000,-1.19986,-0.30480
4.10000,-1.22993,-0.31963
4.20000,-1.25994,-0.33555
4.30000,-1.28990,-0.34967
4.40000,-1.32003,-0.36780
4.50000,-1.34993,-0.38188
4.60000,-1.38000,-0.39618
4.70000,-1.41002,-0.41216
4.80000,-1.44003,-0.42707
4.90000,-1.46998,-0.44445
5.00000,-1.50000,-0.45680
5.10000,-1.53001,-0.47491
5.20000,-1.55997,-0.48892
5.30000,-1.58998,-0.50004
5.40000,-1.62006,-0.52264
5.50000,-1.65001,-0.53185
5.60000,-1.68003,-0.54806
5.70000,-1.71010,-0.55899
5.80000,-1.73993,-0.57749
5.90000,-1.76995,-0.59255
6.00000,-1.79996,-0.60357
6.10000,-1.82998,-0.61856
6.20000,-1.85993,-0.62905
6.30000,-1.88995,-0.64326
6.40000,-1.92002,-0.65436
6.50000,-1.94991,-0.67018
6.60000,-1.97999,-0.68088
6.70000,-2.01000,-0.69081
6.80000,-2.04002,-0.69937
6.90000,-2.07003,-0.71050
7.00000,-2.09999,-0.72008
7.10000,-2.12988,-0.72972
7.20000,-2.15990,-0.73513
7.30000,-2.18991,-0.74499
7.40000,-2.21986,-0.74993
7.50000,-2.24982,-0.75786
7.60000,-2.27995,-0.76645
7.70000,-2.30997,-0.77520
7.80000,-2.33986,-0.78207
7.90000,-2.36994,-0.79133
8.00000,-2.40001,-0.79954
8.10000,-2.42990,-0.80683
8.20000,-2.45998,-0.81806
8.30000,-2.48987,-0.82487
8.40000,-2.51995,-0.83764
8.50000,-2.54996,-0.84385
8.60000,-2.57998,-0.85680
8.70000,-2.60999,-0.86433
8.80000,-2.64001,-0.87664
8.90000,-2.66996,-0.88766
9.00000,-2.69997,-0.89680
9.10000,-2.72999,-0.90742
9.20000,-2.76000,-0.92037
9.30000,-2.79002,-0.93117
9.40000,-2.81997,-0.94250
9.50000,-2.85005,-0.95515
9.60000,-2.88000,-0.96863
9.70000,-2.90996,-0.98119
9.80000,-2.94003,-0.99037
9.90000,-2.96992,-1.00660
10.00000,-3.00006,-1.01393
10.10000,-3.02995,-1.03119
10.20000,-3.05991,-1.04071
10.30000,-3.08998,-1.05150
10.40000,-3.11994,-1.06724
10.50000,-3.15001,-1.07986
10.60000,-3.17990,-1.09045
10.70000,-3.20992,-1.09983
10.80000,-3.23987,-1.11232
10.90000,-3.26983,-1.12510
11.00000,-3.29996,-1.13732
11.10000,-3.32992,-1.15214
11.20000,-3.35987,-1.16433
11.30000,-3.38995,-1.17876
11.40000,-3.41984,-1.19458
11.50000,-3.44997,-1.20641
11.60000,-3.47987,-1.22095
11.70000,-3.50994,-1.23645
11.80000,-3.53978,-1.25010
11.90000,-3.57003,-1.26546
12.00000,-3.59993,-1.28543
12.10000,-3.62994,-1.30052
12.20000,-3.65989,-1.31945
12.30000,-3.68997,-1.33580
12.40000,-3.71992,-1.35312
12.50000,-3.75000,-1.37295
12.60000,-3.78007,-1.38908
12.70000,-3.80997,-1.40923
12.80000,-3.83992,-1.42595
12.90000,-3.86994,-1.44796
13.00000,-3.89995,-1.46751
13.10000,-3.92990,-1.48877
13.20000,-3.95998,-1.51139
13.30000,-3.98999,-1.52845
13.40000,-4.01989,-1.55056
13.50000,-4.04996,-1.57204
13.60000,-4.07986,-1.59542
13.70000,-4.10993,-1.61903
13.80000,-4.13983,-1.64365
13.90000,-4.16990,-1.67579
14.00000,-4.19997,-1.70637
14.10000,-4.22999,-1.74251
14.20000,-4.25994,-1.77860
14.30000,-4.29002,-1.82062
14.40000,-4.32009,-1.86703
14.50000,-4.34999,-1.93007
14.60000,-4.38006,-2.01390
14.70000,-4.41001,-2.09045
14.80000,-4.43997,-2.14990
14.90000,-4.46998,-2.19807
15.00000,-4.50000,-2.24308
15.10000,-4.52989,-2.28931
15.20000,-4.55997,-2.34880
15.30000,-4.58992,-2.41895
15.40000,-4.61994,-2.50254
15.50000,-4.65001,-2.58364
15.60000,-4.67996,-2.65132
15.70000,-4.70998,-2.70712
15.80000,-4.73993,-2.75534
15.90000,-4.76995,-2.80113
16.00000,-4.79990,-2.85349
16.10000,-4.82986,-2.90505
16.20000,-4.85999,-2.96234
16.30000,-4.88994,-3.02233
16.40000,-4.91996,-3.08700
16.50000,-4.94985,-3.15240
16.60000,-4.97999,-3.21667
16.70000,-5.01000,-3.28328
16.80000,-5.04002,-3.34140
16.90000,-5.07003,-3.39479
17.00000,-5.10004,-3.44814
17.10000,-5.12994,-3.50167
17.20000,-5.15995,-3.56716
17.30000,-5.18985,-3.63411
17.40000,-5.21992,-3.69902
17.50000,-5.24994,-3.75862
17.60000,-5.28001,-3.81125
17.70000,-5.31003,-3.86866
17.80000,-5.33992,-3.92221
17.90000,-5.37005,-3.98586
18.00000,-5.39989,-4.05272
18.10000,-5.42990,-4.12172
18.20000,-5.45992,-4.18723
18.30000,-5.48993,-4.24550
18.40000,-5.51995,-4.30903
18.50000,-5.54996,-4.36688
18.60000,-5.58009,-4.42544
18.70000,-5.61005,-4.48097
18.80000,-5.64006,-4.53893
18.90000,-5.67002,-4.60067
19.00000,-5.69997,-4.66623
19.10000,-5.72999,-4.72587
19.20000,-5.75994,-4.78621
19.30000,-5.78990,-4.84647
19.40000,-5.81991,-4.90780
19.50000,-5.84992,-4.97108
19.60000,-5.87994,-5.04547
19.70000,-5.90989,-5.11667
19.80000,-5.94003,-5.19243
19.90000,-5.96998,-5.26231
20.00000,-6.00000,-5.32994
20.10000,-6.03001,-5.39325
20.20000,-6.05997,-5.45189
20.30000,-6.09004,-5.51646
20.40000,-6.11993,-5.57877
20.50000,-6.15001,-5.64870
20.60000,-6.18002,-5.71469
20.70000,-6.21004,-5.78105
20.80000,-6.23999,-5.85898
20.90000,-6.27001,-5.92403
21.00000,-6.30002,-5.98589
21.10000,-6.33003,-6.04409
21.20000,-6.35999,-6.10404
21.30000,-6.39000,-6.16637
21.40000,-6.41996,-6.23643
21.50000,-6.44991,-6.30245
21.60000,-6.47993,-6.36492
21.70000,-6.50994,-6.41944
21.80000,-6.53995,-6.47636
21.90000,-6.56997,-6.53005
22.00000,-6.60010,-6.58693
22.10000,-6.62994,-6.64651
22.20000,-6.66007,-6.71194
22.30000,-6.68991,-6.77776
22.40000,-6.71986,-6.84706
22.50000,-6.74994,-6.91549
22.60000,-6.77989,-6.98230
22.70000,-6.80996,-7.04453
22.80000,-6.83992,-7.10917
22.90000,-6.86999,-7.17416
23.00000,-6.90001,-7.24075
23.10000,-6.92996,-7.30771
23.20000,-6.95998,-7.37240
23.30000,-6.98993,-7.43905
23.40000,-7.01989,-7.50262
23.50000,-7.04996,-7.56897
23.60000,-7.07985,-7.63119
23.70000,-7.10993,-7.68880
23.80000,-7.13988,-7.74300
23.90000,-7.16996,-7.80496
24.00000,-7.19979,-7.86609
24.10000,-7.23005,-7.93873
24.20000,-7.25994,-8.01029
24.30000,-7.29001,-8.07994
24.40000,-7.31991,-8.15153
24.50000,-7.34998,-8.21560
24.60000,-7.37994,-8.27299
24.70000,-7.40995,-8.33110
24.80000,-7.43997,-8.39094
24.90000,-7.46998,-8.45275
25.00000,-7.50005,-8.51880
25.10000,-7.53001,-8.58072
25.20000,-7.56002,-8.63963
25.30000,-7.58992,-8.69883
25.40000,-7.61999,-8.75923
25.50000,-7.64989,-8.81792
25.60000,-7.67996,-8.87497
25.70000,-7.70998,-8.93192
25.80000,-7.73987,-8.98804
25.90000,-7.76982,-9.04303
26.00000,-7.79978,-9.10388
26.10000,-7.82997,-9.16770
26.20000,-7.85993,-9.23040
26.30000,-7.88982,-9.29088
26.40000,-7.92008,-9.34557
26.50000,-7.95003,-9.40006
26.60000,-7.97999,-9.45619
26.70000,-8.00994,-9.51207
26.80000,-8.03989,-9.56594
26.90000,-8.06991,-9.62001
27.00000,-8.10004,-9.67466
27.10000,-8.13000,-9.73366
27.20000,-8.16001,-9.79693
27.30000,-8.18991,-9.85681
27.40000,-8.21998,-9.91467
27.50000,-8.24993,-9.97607
27.60000,-8.27995,-10.03165
27.70000,-8.30990,-10.08338
27.80000,-8.33992,-10.13466
27.90000,-8.36987,-10.18826
28.00000,-8.39989,-10.23801
28.10000,-8.42990,-10.29571
28.20000,-8.45998,-10.35443
28.30000,-8.48993,-10.40987
28.40000,-8.52000,-10.46287
28.50000,-8.54984,-10.51777
28.60000,-8.57997,-10.57378
28.70000,-8.60999,-10.62536
28.80000,-8.63994,-10.67626
28.90000,-8.67008,-10.72710
29.00000,-8.69997,-10.77657
29.10000,-8.72993,-10.83203
29.20000,-8.76006,-10.88177
29.30000,-8.78989,-10.93147
29.40000,-8.82003,-10.98171
29.50000,-8.84992,-11.03267
29.60000,-8.88000,-11.09035
29.70000,-8.90995,-11.14663
29.80000,-8.93991,-11.20324
29.90000,-8.96992,-11.25699
30.00000,-8.99993,-11.30906
30.10000,-9.02995,-11.35498
30.20000,-9.05990,-11.40091
30.30000,-9.08998,-11.44725
30.40000,-9.11999,-11.49385
30.50000,-9.15007,-11.54334
30.60000,-9.18002,-11.59592
30.70000,-9.20997,-11.64968
30.80000,-9.24005,-11.70309
30.90000,-9.27006,-11.75346
31.00000,-9.30002,-11.80770
31.10000,-9.33003,-11.85079
31.20000,-9.35999,-11.89790
31.30000,-9.38994,-11.94719
31.40000,-9.42002,-11.99520
31.50000,-9.44991,-12.04213
31.60000,-9.47992,-12.10028
31.70000,-9.50988,-12.14257
31.80000,-9.53989,-12.19368
31.90000,-9.56991,-12.24837
32.00000,-9.60004,-12.29263
32.10000,-9.62994,-12.34844
32.20000,-9.65995,-12.39931
32.30000,-9.69002,-12.45261
32.40000,-9.71998,-12.50248
32.50000,-9.74999,-12.54882
32.60000,-9.78001,-12.59010
32.70000,-9.81008,-12.63529
32.80000,-9.83998,-12.69130
32.90000,-9.87005,-12.73989
33.00000,-9.90001,-12.78610
33.10000,-9.93002,-12.82064
33.20000,-9.95997,-12.86950
33.30000,-9.99005,-12.92141
33.40000,-10.01988,-12.96317
33.50000,-10.04990,-13.00702
33.60000,-10.07997,-13.07465
33.70000,-10.10987,-13.12618
33.80000,-10.13994,-13.17885
33.90000,-10.16996,-13.21996
34.00000,-10.19991,-13.25844
34.10000,-10.22986,-13.29711
34.20000,-10.25988,-13.32714
34.30000,-10.28989,-13.37387
34.40000,-10.31997,-13.43148
34.50000,-10.35004,-13.48584
34.60000,-10.38000,-13.53069
34.70000,-10.40995,-13.58144
34.80000,-10.43990,-13.63207
34.90000,-10.46992,-13.67369
35.00000,-10.49987,-13.70908
35.10000,-10.53001,-13.75827
35.20000,-10.55996,-13.80109
35.30000,-10.58998,-13.84379
35.40000,-10.61981,-13.88665
35.50000,-10.64995,-13.94331
35.60000,-10.67996,-13.99732
35.70000,-10.71003,-14.04426
35.80000,-10.73999,-14.08996
35.90000,-10.77006,-14.13803
36.00000,-10.80002,-14.18616
36.10000,-10.82997,-14.23062
36.20000,-10.85987,-14.27113
36.30000,-10.88994,-14.30511
36.40000,-10.91996,-14.34688
36.50000,-10.94997,-14.39317
36.60000,-10.97992,-14.44539
36.70000,-11.01000,-14.48821
36.80000,-11.03989,-14.52747
36.90000,-11.06997,-14.57881
37.00000,-11.09998,-14.62394
37.10000,-11.13000,-14.67243
37.20000,-11.15995,-14.70446
37.30000,-11.19002,-14.76053
37.40000,-11.22004,-14.80987
37.50000,-11.24999,-14.85138
37.60000,-11.28001,-14.89659
37.70000,-11.31002,-14.93803
37.80000,-11.33986,-14.97858
37.90000,-11.36999,-15.01517
38.00000,-11.39988,-15.07528
38.10000,-11.42990,-15.11327
38.20000,-11.45997,-15.15214
38.30000,-11.48993,-15.19411
38.40000,-11.52000,-15.23160
38.50000,-11.54990,-15.27028
38.60000,-11.57997,-15.32220
38.70000,-11.60993,-15.37904
38.80000,-11.63988,-15.42377
38.90000,-11.67001,-15.47232
39.00000,-11.69997,-15.52211
39.10000,-11.72998,-15.55098
39.20000,-11.76006,-15.59360
39.30000,-11.78995,-15.64356
39.40000,-11.82003,-15.67687
39.50000,-11.84992,-15.71261
39.60000,-11.87999,-15.76269
39.70000,-11.90983,-15.80722
39.80000,-11.94002,-15.82429
39.90000,-11.96992,-15.87141
40.00000,-11.99987,-15.90099
40.10000,-12.02989,-15.93466
40.20000,-12.05996,-15.98855
40.30000,-12.08986,-16.03761
40.40000,-12.11993,-16.08071
40.50000,-12.14994,-16.12004
40.60000,-12.17996,-16.16245
40.70000,-12.20991,-16.19836
40.80000,-12.23999,-16.24594
40.90000,-12.27000,-16.30460
41.00000,-12.30002,-16.35438
41.10000,-12.33003,-16.41884
41.20000,-12.35998,-16.46330
41.30000,-12.38994,-16.49199
41.40000,-12.42001,-16.53855
41.50000,-12.44997,-16.58548
41.60000,-12.47998,-16.62262
41.70000,-12.50994,-16.65555
41.80000,-12.53989,-16.69706
41.90000,-12.56985,-16.74141
42.00000,-12.59992,-16.76856
42.10000,-12.62987,-16.82754
42.20000,-12.65995,-16.87393
42.30000,-12.68990,-16.91066
42.40000,-12.71992,-16.94972
42.50000,-12.74999,-16.99533
42.60000,-12.78001,-17.03196
42.70000,-12.81008,-17.06920
42.80000,-12.83997,-17.11793
42.90000,-12.87005,-17.14557
43.00000,-12.89994,-17.18646
43.10000,-12.93002,-17.23901
43.20000,-12.95997,-17.28046
43.30000,-12.98999,-17.32517
43.40000,-13.01994,-17.34834
43.50000,-13.04990,-17.40990
43.60000,-13.07991,-17.43882
43.70000,-13.10986,-17.47699
43.80000,-13.14000,-17.51197
43.90000,-13.17001,-17.55804
44.00000,-13.19997,-17.61018
44.10000,-13.22998,-17.66464
44.20000,-13.25994,-17.70956
44.30000,-13.28995,-17.75847
44.40000,-13.31990,-17.79204
44.50000,-13.34992,-17.82299
44.60000,-13.37993,-17.86805
44.70000,-13.40995,-17.89323
44.80000,-13.43996,-17.93358
44.90000,-13.46998,-17.96301
45.00000,-13.49993,-17.99803
45.10000,-13.53001,-18.03275
45.20000,-13.55990,-18.06862
45.30000,-13.59003,-18.11244
45.40000,-13.61987,-18.15643
45.50000,-13.65000,-18.19446
45.60000,-13.67996,-18.23163
45.70000,-13.70985,-18.26130
45.80000,-13.73993,-18.29406
45.90000,-13.76988,-18.32065
46.00000,-13.79990,-18.36162
46.10000,-13.82997,-18.40626
46.20000,-13.85998,-18.44138
46.30000,-13.89000,-18.48168
46.40000,-13.91995,-18.54049
46.50000,-13.94997,-18.58096
46.60000,-13.97998,-18.62362
46.70000,-14.00988,-18.67423
46.80000,-14.04001,-18.71605
46.90000,-14.06996,-18.74589
47.00000,-14.09998,-18.78818
47.10000,-14.13011,-18.82756
47.20000,-14.15995,-18.85827
47.30000,-14.19014,-18.89572
47.40000,-14.21998,-18.93769
47.50000,-14.25005,-18.96793
47.60000,-14.27989,-19.01154
47.70000,-14.31002,-19.05145
47.80000,-14.33991,-19.08473
47.90000,-14.36999,-19.11551
48.00000,-14.39994,-19.15642
48.10000,-14.42990,-19.18502
48.20000,-14.45997,-19.23298
48.30000,-14.48999,-19.27149
48.40000,-14.52000,-19.31012
48.50000,-14.55001,-19.34557
48.60000,-14.57997,-19.38122
48.70000,-14.60992,-19.41038
48.80000,-14.63988,-19.45108
48.90000,-14.66989,-19.49521
49.00000,-14.69997,-19.53303
49.10000,-14.72998,-19.56715
49.20000,-14.75999,-19.62684
49.30000,-14.79001,-19.65256
49.40000,-14.81996,-19.69850
49.50000,-14.84998,-19.75948
49.60000,-14.87987,-19.79638
49.70000,-14.90995,-19.82981
49.80000,-14.93990,-19.87417
49.90000,-14.96998,-19.90690
50.00000,-14.99981,-19.93500
50.10000,-15.03000,-19.97445
50.20000,-15.05996,-20.00637
50.30000,-15.08991,-20.03894
50.40000,-15.11999,-20.07373
50.50000,-15.14988,-20.12565
50.60000,-15.18002,-20.15770
50.70000,-15.20991,-20.19685
50.80000,-15.23993,-20.22238
50.90000,-15.27000,-20.24559
51.00000,-15.29995,-20.29162
51.10000,-15.32997,-20.32609
51.20000,-15.36004,-20.35306
51.30000,-15.38994,-20.39770
51.40000,-15.42001,-20.43695
51.50000,-15.45009,-20.45245
51.60000,-15.47998,-20.49778
51.70000,-15.50994,-20.52592
51.80000,-15.54001,-20.54098
51.90000,-15.56990,-20.57149
52.00000,-15.59998,-20.60996
52.10000,-15.62993,-20.63230
52.20000,-15.66001,-20.66159
52.30000,-15.68984,-20.70009
52.40000,-15.71986,-20.71664
52.50000,-15.74993,-20.75041
52.60000,-15.77988,-20.79669
52.70000,-15.80996,-20.82808
52.80000,-15.83985,-20.84975
52.90000,-15.86993,-20.89313
53.00000,-15.89994,-20.92057
53.10000,-15.92996,-20.93691
53.20000,-15.95997,-20.98558
53.30000,-15.98998,-21.01382
53.40000,-16.02000,-21.04119
53.50000,-16.05001,-21.07019
53.60000,-16.07997,-21.10356
53.70000,-16.10992,-21.12401
53.79000,-16.13689,-21.26255
53.80000,-16.13988,-21.40365
53.81400,-16.14418,-21.53597
53.86400,-16.15913,-21.66141
53.96400,-16.18908,-21.67951
54.06400,-16.21922,-21.70926
54.16400,-16.24911,-21.71753
54.26400,-16.27925,-21.72904
54.36400,-16.30908,-21.74366
54.46400,-16.33915,-21.75285
54.56400,-16.36911,-21.77342
54.66400,-16.39906,-21.78597
54.76400,-16.42914,-21.79464
54.86400,-16.45915,-21.80995
54.96400,-16.48923,-21.81358
55.06400,-16.51924,-21.84066
55.16400,-16.54908,-21.85329
55.26400,-16.57921,-21.83131
55.36400,-16.60916,-21.87036
55.46400,-16.63918,-21.86520
55.56400,-16.66913,-21.86737
55.66400,-16.69921,-21.87995
55.76400,-16.72922,-21.90949
55.86400,-16.75918,-21.89659
55.96400,-16.78913,-21.88495
56.06400,-16.81920,-21.91181
56.16400,-16.84904,-21.90266
56.26400,-16.87917,-21.95087
56.36400,-16.90913,-21.92984
56.46400,-16.93926,-21.92867
56.56400,-16.96916,-21.97201
56.66400,-16.99923,-21.94527
56.76400,-17.02919,-22.00419
56.86400,-17.05908,-21.98008
56.96400,-17.08921,-22.03017
57.06400,-17.11917,-22.07111
57.16400,-17.14918,-22.07211
57.26400,-17.17926,-22.15542
57.36400,-17.20915,-22.18618
57.46400,-17.23923,-22.23635
57.56400,-17.26912,-22.27485
57.66400,-17.29914,-22.30754
57.76400,-17.32921,-22.36222
57.86400,-17.35928,-22.36030
57.96400,-17.38912,-22.38125
58.06400,-17.41931,-22.41957
58.16400,-17.44915,-22.42855
58.26400,-17.47916,-22.46625
58.36400,-17.50918,-22.50131
58.46400,-17.53919,-22.53254
58.56400,-17.56926,-22.55981
58.66400,-17.59922,-22.59654
58.76400,-17.62917,-22.64405
58.86400,-17.65919,-22.69624
58.96400,-17.68920,-22.75822
59.06400,-17.71916,-22.82334
59.16400,-17.74917,-22.85880
59.26400,-17.77919,-22.89567
59.36400,-17.80914,-22.94666
59.46400,-17.83915,-22.98824
59.56400,-17.86917,-23.01661
59.66400,-17.89918,-23.04915
59.76400,-17.92920,-23.07505
59.86400,-17.95915,-23.10942
59.96400,-17.98923,-23.13613
60.06400,-18.01918,-23.16658
60.16400,-18.04914,-23.19200
60.26400,-18.07909,-23.21356
60.36400,-18.10916,-23.24199
60.46400,-18.13918,-23.26479
60.56400,-18.16913,-23.30400
60.66400,-18.19915,-23.34563
60.76400,-18.22916,-23.37137
60.86400,-18.25911,-23.40820
60.96400,-18.28919,-23.45076
61.06400,-18.31914,-23.48120
61.16400,-18.34916,-23.51593
61.26400,-18.37911,-23.56692
61.36400,-18.40919,-23.59958
61.46400,-18.43902,-23.62845
61.56400,-18.46910,-23.67231
61.66400,-18.49911,-23.70375
61.76400,-18.52906,-23.72791
61.86400,-18.55908,-23.76817
61.96400,-18.58909,-23.79162
62.06400,-18.61917,-23.81227
62.16400,-18.64912,-23.84053
62.26400,-18.67914,-23.87130
62.36400,-18.70915,-23.88885
62.46400,-18.73911,-23.91728
62.56400,-18.76906,-23.95656
62.66400,-18.79913,-23.98910
62.76400,-18.82909,-24.03013
62.86400,-18.85922,-24.07440
62.96400,-18.88930,-24.11963
63.06400,-18.91919,-24.17720
63.16400,-18.94921,-24.24314
63.26400,-18.97910,-24.30859
63.36400,-19.00917,-24.36350
63.46400,-19.03913,-24.41615
63.56400,-19.06920,-24.45820
63.66400,-19.09922,-24.49266
63.76400,-19.12917,-24.53435
63.86400,-19.15907,-24.56527
63.96400,-19.18920,-24.58910
64.06400,-19.21916,-24.60920
64.16400,-19.24911,-24.64406
64.26400,-19.27912,-24.66030
64.36401,-19.30914,-24.68409
64.46400,-19.33915,-24.71473
64.56400,-19.36905,-24.74184
64.66400,-19.39912,-24.76388
64.76400,-19.42914,-24.80943
64.86401,-19.45915,-24.82011
64.96400,-19.48911,-24.87374
65.06400,-19.51918,-24.92170
65.16400,-19.54919,-24.95610
65.26400,-19.57921,-24.99679
65.36401,-19.60922,-25.04319
65.46400,-19.63924,-25.08017
65.56400,-19.66919,-25.10171
65.66400,-19.69909,-25.14346
65.76400,-19.72916,-25.16962
65.86401,-19.75906,-25.19918
65.96401,-19.78913,-25.23378
66.06400,-19.81908,-25.26698
66.16400,-19.84904,-25.28599
66.26400,-19.87917,-25.31689
66.36401,-19.90913,-25.34752
66.46401,-19.93920,-25.36932
66.56400,-19.96910,-25.39360
66.66400,-19.99923,-25.42964
66.76400,-20.02918,-25.45478
66.86401,-20.05914,-25.47829
66.96401,-20.08915,-25.46338
67.06400,-20.11917,-25.44393
67.16400,-20.14912,-25.43224
67.26400,-20.17926,-25.42599
67.36401,-20.20915,-25.42091
67.46401,-20.23923,-25.40347
67.56400,-20.26918,-25.40975
67.66400,-20.29920,-25.42211
67.76400,-20.32909,-25.41926
67.86401,-20.35910,-25.42222
67.96401,-20.38906,-25.43476
68.06400,-20.41907,-25.42174
68.16400,-20.44908,-25.42143
68.26400,-20.47928,-25.43406
68.36401,-20.50917,-25.42350
68.46401,-20.53919,-25.42527
68.56400,-20.56920,-25.44672
